MISSION ELAPSED TIME (mins),Rx(km)[J2000-EARTH],Ry(km)[J2000-EARTH],Rz(km)[J2000-EARTH],Vx(km/s)[J2000-EARTH],Vy(km/s)[J2000-EARTH],Vz(km/s)[J2000-EARTH],MASS (kg),WPSA,WPSA Range,DS54,DS54 Range,DS24,Range DS24,DS34,Range DS34
0.0,774.0,5011.0,4055.0,-0.308,0.269,0.0007,60129.73972,1,1139.486313,0,,0,,0,
8.236480545,264.90909090909093,5084.636363636364,4185.0,-7.47,2.14,2.89,60129.73972,0,,0,,0,,0,
9.236480545,-125.09090909090908,5089.636363636364,4247.5,-7.65,1.72,2.57,60129.73972,0,,1,3804.920572,0,,0,
10.23648055,-485.09090909090907,5076.559440559441,4289.807692307692,-7.79,1.31,2.24,60129.73972,0,,1,3804.920572,0,,0,
11.23648055,-816.5194805194806,5047.988011988012,4315.521978021978,-7.88,0.888,1.91,60129.73972,0,,1,3804.920572,0,,0,
12.23648055,-1123.3194805194805,5006.654678654679,4326.855311355311,-7.94,0.475,1.57,60129.73972,0,,1,3804.920572,0,,0,
13.23648055,-1406.8819805194805,4954.779678654679,4325.605311355311,-7.96,0.0692,1.24,60129.73972,0,,1,3804.920572,0,,0,
14.23648055,-1668.6466864018334,4893.603208066444,4313.840605472958,-7.94,-0.328,0.905,60129.73972,0,,1,3804.920572,0,,0,
15.23648055,-1910.4800197351667,4825.26987473311,4293.285049917403,-7.88,-0.715,0.575,60129.73972,0,,1,3804.920572,0,,0,
16.23648055,-2133.532651314114,4750.533032627846,4264.33768149635,-7.79,-1.09,0.25,60129.73972,0,,1,3804.920572,0,,0,
17.23648055,-2339.032651314114,4671.033032627847,4228.83768149635,-7.68,-1.45,-0.0673,60129.73972,0,,1,3804.920572,0,,0,
18.23648055,-2693.1842838798198,4566.034684259239,4194.029565571167,-7.53,-1.79,-0.376,60129.73972,0,,1,3804.920572,0,,0,
19.23648055,-3032.088952619265,4444.604600290383,4142.981043849725,-7.35,-2.12,-0.676,60129.73972,0,,1,3804.920572,0,,0,
20.23648055,-3360.438854795683,4309.853012123084,4079.7550960422122,-7.16,-2.43,-0.965,60129.73972,0,,1,3804.920572,0,,0,
21.23648055,-3678.706252080922,4162.5176907012665,4003.7524662289375,-6.93,-2.73,-1.24,60129.73972,0,,1,3804.920572,0,,0,
22.23648055,-3987.315590658994,4002.7441746369286,3916.663990639286,-6.69,-3.0,-1.51,60129.73972,0,,0,,0,,0,
23.23648055,-4287.015396165969,3831.548649436041,3818.154424603485,-6.43,-3.26,-1.76,60129.73972,0,,0,,0,,0,
24.23648055,-4578.022066948293,3649.3870979751096,3709.2818802658935,-6.16,-3.5,-2.0,60129.73972,0,,0,,0,,0,
25.23648055,-4860.490835975617,3456.1762924705426,3590.053944005541,-5.87,-3.72,-2.23,60129.73972,0,,0,,0,,0,
26.23648055,-5135.49137678764,3252.7216133574148,3461.392388709947,-5.57,-3.93,-2.44,60129.73972,0,,0,,0,,0,
27.23648055,-5403.089313061316,3039.5310423938927,3323.2451240706273,-5.26,-4.11,-2.64,60129.73972,0,,0,,0,,0,
28.23648055,-5663.292146148676,2816.505942882195,3175.965496199341,-4.93,-4.28,-2.83,60129.73972,0,,0,,0,,0,
29.23648055,-5908.797539262118,2584.879505813343,3019.56229273075,-4.6,-4.43,-3.01,60129.73972,0,,0,,0,,0,
30.23648055,-6138.632968594262,2345.5432510894907,2854.391355174801,-4.27,-4.56,-3.17,60129.73972,0,,0,,0,,0,
31.23648055,-6353.54267428419,2099.2777630378114,2681.2731681314303,-3.93,-4.68,-3.31,60129.73972,0,,0,,0,,0,
32.23648055,-6552.784495394354,1846.9657666546386,2500.4992032265554,-3.58,-4.78,-3.45,60129.73972,0,,0,,0,,0,
33.23648055,-6735.557940631121,1589.1768462555242,2313.1409638559185,-3.23,-4.86,-3.57,60129.73972,0,,0,,0,,0,
34.23648055,-6902.485067854379,1326.558256096498,2119.4052908185404,-2.88,-4.93,-3.68,60129.73972,0,,0,,0,,0,
35.23648055,-7053.208217899684,1059.9168140025674,1919.961461346173,-2.53,-4.99,-3.78,60129.73972,0,,0,,0,,0,
36.23648055,-7186.344086995887,790.1038400791688,1715.1068372132045,-2.18,-5.03,-3.86,60129.73972,0,,0,,0,,0,
37.23648055,-7302.386722506299,517.7729514152564,1505.5925596383672,-1.83,-5.06,-3.94,60129.73972,0,,0,,0,,0,
38.23648055,-7400.851592978548,243.63504686632467,1291.7099314167542,-1.48,-5.07,-4.0,60129.73972,0,,0,,0,,0,
39.23648055,-7481.229565320042,-31.85849793446887,1074.4971531776248,-1.13,-5.07,-4.05,60129.73972,0,,0,,0,,0,
40.23648055,-7547.351166622939,-299.8453981218594,861.2438961999685,-0.782,-5.05,-4.09,60129.73972,0,,0,,0,,0,
41.23648055,-7595.7870765243715,-567.5648305824269,645.9365232512267,-0.439,-5.03,-4.12,60129.73972,0,,0,,0,,0,
42.23648055,-7626.899296636382,-834.2569602634388,428.81969100721665,-0.0996,-4.99,-4.14,60129.73972,0,,0,,0,,0,
43.23648055,-7640.605036698483,-1099.3180966093428,210.2857153962497,0.236,-4.94,-4.15,60129.73972,0,,0,,0,,0,
44.23648055,-7636.857391501851,-1361.742843752586,-8.872047026733707,0.568,-4.88,-4.14,60129.73972,0,,0,,0,,0,
45.23648055,-7616.076007684224,-1621.1578987450403,-227.83591391899745,0.894,-4.81,-4.13,60129.73972,0,,0,,0,,0,
46.23648055,-7578.219397173452,-1876.7116343824207,-446.375782682256,1.22,-4.73,-4.11,60129.73972,0,,0,,0,,0,
47.23648055,-7523.813162682329,-2128.5524081055,-663.749913677029,1.53,-4.63,-4.08,60129.73972,0,,0,,0,,0,
48.23648055,-7452.384484691131,-2375.8686760815376,-879.7170373427987,1.84,-4.53,-4.04,60129.73972,0,,0,,0,,0,
48.63913203,-7364.96112927676,-2617.343862228931,-1093.7883857807763,1.98,-4.52,-4.05,59529.04604,0,,0,,0,,0,
49.63913203,-7257.647707474595,-2860.618130443654,-1312.2026627286964,2.28,-4.4,-4.0,59529.04604,0,,0,,0,,0,
50.63913203,-7134.16253451718,-3098.156767059744,-1528.3749906751295,2.57,-4.28,-3.94,59529.04604,0,,0,,0,,0,
51.63913203,-6994.08130741682,-3329.18636388361,-1741.0905663714475,2.86,-4.14,-3.87,59529.04604,0,,0,,0,,0,
52.63913203,-6838.440407955842,-3552.9328340646184,-1950.0860792403807,3.14,-4.0,-3.79,59529.04604,0,,0,,0,,0,
53.63913203,-6667.332176518709,-3769.613570937382,-2155.1046689722125,3.41,-3.85,-3.7,59529.04604,0,,0,,0,,0,
54.63913203,-6480.855915769553,-3978.0071072966216,-2355.916300069486,3.67,-3.68,-3.61,59529.04604,0,,0,,0,,0,
55.63913203,-6279.594911173818,-4178.349567724201,-2551.8203193770105,3.93,-3.52,-3.5,59529.04604,0,,0,,0,,0,
56.63913203,-6063.663686873837,-4369.431464391289,-2742.5925462117484,4.18,-3.34,-3.39,59529.04604,0,,0,,0,,0,
57.63913203,-5834.156213083412,-4550.975417205579,-2927.534677838484,4.41,-3.15,-3.27,59529.04604,0,,0,,0,,0,
58.63913203,-5590.744799503026,-4722.730754261781,-3105.9255598632685,4.64,-2.96,-3.15,59529.04604,0,,0,,0,,0,
59.63913203,-5335.033983014339,-4884.500098863425,-3278.0324185673935,4.86,-2.76,-3.01,59529.04604,0,,0,,0,,0,
60.63913203,-5066.903296791327,-5034.694197284412,-3442.3239063593282,5.07,-2.56,-2.87,59529.04604,0,,0,,0,,0,
61.63913203,-4787.040334905034,-5173.521068795646,-3599.0213521435376,5.26,-2.34,-2.72,59529.04604,0,,0,,0,,0,
62.63913203,-4496.188286279445,-5300.737804041249,-3747.417891432143,5.45,-2.12,-2.57,59529.04604,0,,0,,0,,1,4625.421092
63.63913203,-4194.575680195625,-5415.628052540079,-3887.2844820417304,5.62,-1.9,-2.4,59529.04604,0,,0,,0,,1,4625.421092
64.63913203,-3883.237855379471,-5517.928776620214,-4017.8934726952066,5.79,-1.67,-2.24,59529.04604,0,,0,,0,,1,4625.421092
65.63913203,-3563.2069523599666,-5606.924860086394,-4138.992331326493,5.94,-1.43,-2.06,59529.04604,0,,0,,0,,1,4625.421092
66.63913203,-3234.737554419274,-5682.353624704503,-4249.850931923966,6.08,-1.18,-1.88,59529.04604,0,,0,,0,,1,4625.421092
67.63913203,-2898.641247796546,-5743.999732720164,-4350.713851209577,6.2,-0.936,-1.69,59529.04604,0,,0,,0,,1,4625.421092
68.63913203,-2555.8654995322026,-5792.150948495893,-4440.872809878132,6.31,-0.682,-1.49,59529.04604,0,,0,,0,,1,4625.421092
69.63913203,-2206.6215345336614,-5825.621958207599,-4520.1201723788745,6.41,-0.424,-1.29,59529.04604,0,,0,,0,,1,4625.421092
70.63913203,-1852.2009121096278,-5844.678051174808,-4587.72456006945,6.49,-0.161,-1.08,59529.04604,0,,0,,0,,1,4625.421092
71.63913203,-1493.9657928755428,-5848.677243869328,-4643.994592754955,6.56,0.105,-0.872,59529.04604,0,,0,,0,,1,4625.421092
72.63913203,-1132.312065774068,-5837.935052623012,-4687.743254785526,6.61,0.376,-0.655,59529.04604,0,,0,,0,,1,4625.421092
73.63913203,-768.6182547487991,-5811.7949150521,-4719.259522953196,6.64,0.649,-0.432,59529.04604,0,,0,,0,,1,4625.421092
74.63913203,-403.02038347645794,-5770.103258177701,-4738.358274998769,6.66,0.925,-0.205,59529.04604,0,,0,,0,,1,4625.421092
75.63913203,-37.15950988130735,-5713.211982255575,-4744.381515113948,6.66,1.2,0.027,59529.04604,0,,0,,0,,1,4625.421092
76.63913203,327.9928622426257,-5641.026338364034,-4737.650974303319,6.65,1.48,0.263,59529.04604,0,,0,,0,,1,4625.421092
77.63913203,691.4793830757205,-5552.95997404701,-4717.040976422288,6.61,1.76,0.502,59529.04604,0,,0,,0,,1,4625.421092
78.63913203,1051.985414619334,-5448.907986113353,-4683.357332682923,6.55,2.05,0.745,59529.04604,0,,0,,0,,1,4625.421092
79.63913203,1408.3779603269109,-5329.745837994226,-4635.981558823162,6.48,2.33,0.99,59529.04604,0,,0,,0,,1,4625.421092
80.63913203,1759.6279350699394,-5194.952031983557,-4575.274628145377,6.38,2.61,1.24,59529.04604,0,,0,,0,,1,4625.421092
81.63913203,2104.719377428918,-5044.9657310239945,-4500.152131549173,6.27,2.88,1.49,59529.04604,0,,0,,0,,0,
82.63913203,2442.1536359441407,-4879.280155381728,-4411.960008488884,6.13,3.16,1.74,59529.04604,0,,0,,0,,0,
83.63913203,2770.8769210300516,-4698.847410519664,-4309.670846174052,5.97,3.43,1.99,59529.04604,0,,0,,0,,0,
84.63913203,3088.8516798189935,-4503.700035293043,-4193.691412335095,5.78,3.7,2.24,59529.04604,0,,0,,0,,0,
85.63913203,3395.445282983767,-4294.379874148809,-4063.958069201911,5.57,3.96,2.48,59529.04604,0,,0,,0,,0,
86.63913203,3689.5755226270203,-4070.9382687434713,-3920.9368969063094,5.34,4.21,2.73,59529.04604,0,,0,,0,,0,
87.63913203,3969.6546556462404,-3834.433865262443,-3765.1011930364584,5.09,4.46,2.97,59529.04604,0,,0,,0,,0,
88.63913203,4234.563419274766,-3585.4075598232143,-3596.5042038671672,4.81,4.69,3.21,59529.04604,0,,0,,0,,0,
89.63913203,4482.692319507538,-3324.1825385087077,-3415.1615474263795,4.51,4.92,3.44,59529.04604,0,,0,,0,,0,
90.63913203,4712.908037466569,-3051.8043735344318,-3222.12054685654,4.18,5.13,3.66,59529.04604,0,,0,,0,,0,
91.63913203,4924.0720425864,-2778.8169906119756,-3026.012842792098,3.83,5.33,3.88,59529.04604,0,,0,,0,,0,
92.63913203,5116.039675844275,-2497.0095535913742,-2819.1558783542446,3.45,5.51,4.08,59529.04604,0,,0,,0,,0,
93.63913203,5287.233977839281,-2206.546023501857,-2602.3656718475127,3.06,5.67,4.28,59529.04604,0,,0,,0,,0,
94.63913203,5436.551830679743,-1908.9309541509665,-2376.017413131186,2.64,5.82,4.46,59529.04604,0,,0,,0,,0,
95.63913203,5562.936838222779,-1604.1925000938622,-2141.13371317099,2.2,5.94,4.63,59529.04604,0,,0,,0,,0,
96.63913203,5664.81141598473,-1294.1831313911152,-1897.7924953694442,1.74,6.04,4.78,59529.04604,0,,0,,0,,0,
97.63913203,5741.573210652617,-979.3453745234972,-1646.635275292601,1.26,6.12,4.91,59529.04604,0,,0,,0,,0,
98.63913203,5792.6691384029355,-660.6909499865502,-1388.7119794054083,0.771,6.17,5.03,59529.04604,0,,0,,0,,0,
99.63913203,5817.0744243593435,-339.00511949471695,-1124.3223681823204,0.266,6.2,5.12,59529.04604,0,,0,,0,,0,
100.1082326,5814.293529601933,-15.846248544017362,-854.7804092201171,0.0246,6.2,5.16,59454.07604,0,,0,,0,,0,
101.1082326,5783.862804208702,318.12165770550337,-572.3634023382962,-0.552,6.26,5.29,57996.93593,0,,0,,0,,0,
102.1082326,5724.352342289816,652.4685901213772,-285.3309303156061,-1.14,6.28,5.4,56539.79583,0,,0,,0,,0,
103.1082326,5636.267975612094,986.0924973070148,5.210317086325904,-1.72,6.28,5.48,55082.65572,0,,0,,1,4297.006633,0,
104.1082326,5519.719675500734,1317.7244233474585,298.1061165330178,-2.31,6.25,5.54,53625.51561,0,,0,,1,4297.006633,0,
105.1082326,5375.378067741784,1646.5571922223796,592.8122930162281,-2.89,6.19,5.57,52168.3755,0,,0,,1,4297.006633,0,
106.1082326,5204.000129217735,1971.5946768381916,887.8095933255888,-3.47,6.1,5.58,50711.23539,0,,0,,1,4297.006633,0,
107.1082326,5005.959564879385,2291.383567249657,1182.5896977603406,-4.03,5.98,5.56,49254.09528,1,74284.61081,0,,1,4297.006633,0,
108.1082326,4782.178882590723,2605.920014338315,1476.5509464129877,-4.57,5.83,5.52,47796.95517,1,74284.61081,0,,1,4297.006633,0,
109.1082326,4534.654369800113,2913.7505625545577,1768.3140927039076,-5.08,5.66,5.45,46339.81506,1,74284.61081,0,,1,4297.006633,0,
110.1082326,4264.53336707215,3214.888346657022,2057.945915748219,-5.56,5.47,5.36,44882.67496,1,74284.61081,0,,1,4297.006633,0,
111.1082326,3973.345358945662,3507.9250764170733,2344.0822319966355,-6.01,5.26,5.25,43425.53485,1,74284.61081,0,,1,4297.006633,0,
112.1082326,3662.76948668251,3792.415247352653,2625.4045137133826,-6.41,5.04,5.13,41968.39474,1,74284.61081,0,,0,,0,
113.1082326,3334.2403439021446,4067.412580214216,2901.4412859148315,-6.77,4.82,4.99,40511.25463,1,74284.61081,0,,0,,0,
114.1082326,2989.838962316647,4332.478584359576,3171.752834356257,-7.07,4.6,4.85,39054.11452,1,74284.61081,0,,0,,0,
115.1082326,2630.8449266574426,4586.716292410182,3435.4351702474187,-7.33,4.38,4.7,37596.97441,1,74284.61081,0,,0,,0,
116.1082326,2258.6182696032256,4830.224247419572,3692.066314108978,-7.54,4.17,4.56,36139.8343,1,74284.61081,0,,0,,0,
117.1082326,1875.3491766225002,5063.155725948642,3941.279150148148,-7.71,3.98,4.43,34682.69419,1,74284.61081,1,68027.60838,0,,0,
118.094466,1482.8186572096558,5284.744333883591,4182.213622767538,-7.82,3.82,4.3,33240.775,1,74284.61081,1,68027.60838,0,,0,
119.094466,1081.3506459406024,5494.685549860854,4414.996756585266,-7.89,3.51,4.06,33240.775,1,74284.61081,1,68027.60838,0,,0,
120.094466,672.6854597476271,5693.232299226169,4639.330889779334,-7.94,3.23,3.83,33240.775,1,74284.61081,1,68027.60838,0,,0,
121.094466,258.2930643814008,5880.649496854627,4854.900138480889,-7.96,2.96,3.61,33231.915,1,74284.61081,1,68027.60838,0,,0,
122.094466,-161.40955034681218,6056.285717876504,5061.941033805102,-7.96,2.71,3.4,33231.915,1,74284.61081,1,68027.60838,0,,0,
123.094466,-584.6685021982782,6221.479241402697,5260.767859809688,-7.94,2.47,3.2,33231.915,1,74284.61081,1,68027.60838,0,,0,
124.094466,-1011.3139445032994,6376.182574462121,5451.234188504432,-7.91,2.25,3.02,33231.915,1,74284.61081,1,68027.60838,0,,0,
125.094466,-1439.8715898442968,6520.867773967248,5633.208256211839,-7.87,2.05,2.84,33231.915,1,74284.61081,1,68027.60838,0,,0,
126.094466,-1869.9074156693837,6655.5753480451,5807.596910510061,-7.82,1.86,2.67,33231.915,1,74284.61081,1,68027.60838,0,,0,
127.094466,-2300.8336999330145,6780.842903076377,5973.873440330115,-7.76,1.68,2.52,33231.915,1,74284.61081,1,68027.60838,0,,0,
128.094466,-2732.14284376079,6896.727261932765,6132.5031548392135,-7.7,1.52,2.37,33231.915,1,74284.61081,1,68027.60838,0,,0,
129.094466,-3162.890918809312,7003.826408335223,6283.517631442797,-7.63,1.37,2.24,33231.915,1,74284.61081,1,68027.60838,0,,0,
130.094466,-3592.602997046808,7102.283451258942,6427.443675185674,-7.56,1.23,2.11,33231.915,1,74284.61081,1,68027.60838,0,,0,
131.094466,-4021.867419886529,7192.73600886058,6564.349314455991,-7.49,1.09,1.99,33231.915,1,74284.61081,1,68027.60838,0,,0,
132.094466,-4448.875444099926,7275.840334460879,6694.821773254746,-7.42,0.969,1.87,33231.915,1,74284.61081,1,68027.60838,0,,0,
133.094466,-4874.248738787583,7351.318065290097,6818.965810227228,-7.34,0.854,1.77,33231.915,1,74284.61081,1,68027.60838,0,,0,
134.094466,-5297.227750617048,7419.810006484467,6936.875707748104,-7.26,0.746,1.67,33231.915,1,74284.61081,1,68027.60838,0,,0,
135.094466,-5718.023440922734,7481.491378085584,7048.657783710289,-7.19,0.646,1.57,33231.915,1,74284.61081,1,68027.60838,0,,0,
136.094466,-6137.431033476657,7537.022558291501,7154.93026008521,-7.11,0.551,1.48,33231.915,1,74284.61081,1,68027.60838,0,,0,
137.094466,-6554.80721436702,7586.094918803821,7255.796927563968,-7.03,0.463,1.4,33231.915,1,74284.61081,1,68027.60838,0,,0,
138.094466,-6965.505890088721,7629.357519590192,7351.3931019256615,-6.96,0.38,1.32,33231.915,1,74284.61081,1,68027.60838,0,,0,
139.094466,-7374.174042405117,7667.489032473064,7442.337599279983,-6.88,0.302,1.24,33231.915,1,74284.61081,1,68027.60838,0,,0,
140.094466,-7781.238198584906,7700.672163679956,7528.278597671842,-6.81,0.229,1.17,33231.915,1,74284.61081,1,68027.60838,0,,0,
141.094466,-8186.169958661811,7728.591599301008,7609.820343796151,-6.73,0.161,1.1,33231.915,1,74284.61081,1,68027.60838,0,,0,
142.094466,-8584.885085600577,7751.884378823028,7686.5938952631595,-6.66,0.0959,1.04,33231.915,1,74284.61081,1,68027.60838,0,,0,
143.094466,-8982.18556767561,7770.6865810411355,7759.18250136358,-6.59,0.0348,0.976,33231.915,1,74284.61081,1,68027.60838,0,,0,
144.094466,-9373.082409120008,7785.155006828689,7827.693335920398,-6.52,-0.0228,0.918,33231.915,1,74284.61081,1,68027.60838,0,,0,
145.094466,-9762.875142045157,7795.922256845899,7892.734217329012,-6.45,-0.0772,0.863,33231.915,1,74284.61081,1,68027.60838,0,,0,
146.094466,-10150.11772710128,7802.643800783914,7953.938039009949,-6.39,-0.129,0.811,33231.915,1,74284.61081,1,68027.60838,0,,0,
147.094466,-10530.75206178251,7805.924862908536,8011.388427956184,-6.32,-0.177,0.761,33231.915,1,74284.61081,1,68027.60838,0,,0,
148.094466,-10909.549304153285,7805.916360113772,8065.668002975796,-6.25,-0.223,0.713,33231.915,1,74284.61081,1,68027.60838,0,,0,
149.094466,-11286.751474856512,7802.2443021399495,8116.381748028303,-6.19,-0.267,0.667,33231.915,1,74284.61081,1,68027.60838,0,,0,
150.094466,-11657.380346479084,7795.482065623294,8164.083955465719,-6.13,-0.309,0.624,33231.915,1,74284.61081,1,68027.60838,0,,0,
151.094466,-12026.18745387379,7785.72256072046,8208.874223355411,-6.07,-0.348,0.582,33231.915,1,74284.61081,1,68027.60838,0,,0,
152.094466,-12393.188328634391,7773.079108791435,8251.326917333376,-6.01,-0.385,0.542,33231.915,1,74284.61081,1,68027.60838,0,,0,
153.094466,-12753.603490786083,7757.638845289854,8290.563568436886,-5.95,-0.421,0.504,33231.915,1,74284.61081,1,68027.60838,0,,0,
154.094466,-13117.174386941606,7739.986458502291,8327.132621790552,-5.89,-0.455,0.468,33231.915,1,74284.61081,1,68027.60838,0,,0,
155.094466,-13474.378985832684,7719.72803108597,8361.604586084059,-5.83,-0.487,0.433,33231.915,1,74284.61081,1,68027.60838,0,,0,
156.094466,-13824.95417802206,7697.418319797975,8393.548104521811,-5.78,-0.518,0.399,33231.915,1,74284.61081,1,68027.60838,0,,0,
157.094466,-14173.6960005681,7672.657045748677,8423.028607797405,-5.72,-0.547,0.367,33231.915,1,74284.61081,1,68027.60838,0,,0,
158.094466,-14520.84319750738,7645.993654890684,8450.610616789465,-5.67,-0.575,0.336,33231.915,1,74284.61081,1,68027.60838,0,,0,
159.094466,-14861.407892175082,7617.49751962953,8476.35774748015,-5.62,-0.601,0.307,33231.915,1,74284.61081,1,68027.60838,0,,0,
160.094466,-15205.140713041013,7586.7601805040085,8499.856547452742,-5.57,-0.627,0.278,33231.915,1,74284.61081,1,68027.60838,0,,0,
161.094466,-15542.528731369111,7554.324086248043,8521.14517705209,-5.52,-0.651,0.25,33231.915,1,74284.61081,1,68027.60838,0,,0,
162.094466,-15878.345795243877,7520.254162524424,8540.758724736927,-5.47,-0.674,0.224,33231.915,1,74284.61081,1,68027.60838,0,,0,
163.094466,-16212.603668574351,7484.612915211072,8558.730315107105,-5.42,-0.697,0.198,33231.915,1,74284.61081,1,68027.60838,0,,0,
164.094466,-16540.553677463766,7447.461618707134,8575.138652440615,-5.37,-0.718,0.174,33231.915,1,74284.61081,1,68027.60838,0,,0,
165.094466,-16866.722641989872,7408.335376717376,8589.038953973119,-5.32,-0.738,0.15,33231.915,1,74284.61081,1,68027.60838,0,,0,
166.094466,-17191.33982479773,7367.765743998946,8601.41067236757,-5.28,-0.758,0.127,33231.915,1,74284.61081,1,68027.60838,0,,0,
167.094466,-17514.659107136515,7326.283115208995,8612.803800759859,-5.23,-0.777,0.105,33231.915,1,74284.61081,1,68027.60838,0,,0,
168.094466,-17831.707262464934,7282.964418682011,8622.292560407983,-5.19,-0.795,0.0837,33231.915,1,74284.61081,1,68027.60838,0,,0,
169.094466,-18147.250465712812,7238.812956871577,8630.376657588908,-5.14,-0.812,0.0631,33231.915,1,74284.61081,1,68027.60838,0,,0,
170.094466,-18456.5425943897,7193.378728733679,8637.077603094347,-5.1,-0.828,0.0432,33231.915,1,74284.61081,1,68027.60838,0,,0,
171.094466,-18764.112688457135,7146.709656145162,8642.938655876427,-5.06,-0.844,0.0239,33231.915,1,74284.61081,1,68027.60838,0,,0,
